time (s),recovered_signal (V),recovered_signal_normalized
0.0006711483001708,0.0036347701271109817,0.4986461636137912
0.001469612121582,0.017850865377682813,0.5003416330827013
0.0023202896118164,0.045285654789656994,0.5036136179009031
0.0030086040496826,0.08466462685399498,0.508310114630514
0.0035820007324218,0.1348605774379496,0.5142966883118204
0.0041670799255371,0.194836509698491,0.5214496624741931
0.004974365234375,0.2635984895345382,0.5296504964851457
0.0056703090667724,0.3401145126733556,0.5387761093083342
0.0062403678894042,0.4233774567262896,0.5487063874223362
0.0068113803863525,0.5125530358335902,0.5593418304947034
0.0073914527893066,0.6068744897540588,0.570590991573512
0.0079636573791503,0.7055828673562576,0.5823633550531003
0.0085310935974121,0.8079493342994813,0.5945719971790351
0.0090951919555664,0.9132241710875296,0.6071275033481045
0.0096576213836669,1.020659240493774,0.6199406476650154
0.0102214813232421,1.1295984165139068,0.6329331778679156
0.0108146667480468,1.239472238849122,0.6460371778002683
0.0113852024078369,1.3498609178872736,0.659202581641733
0.0119478702545166,1.460483189545465,0.6723958446912613
0.0125102996826171,1.570917665718089,0.6855667104856669
0.0130727291107177,1.6806163498488873,0.6986498227218417
0.0136382579803466,1.7890894004702913,0.7115867609096141
0.0142214298248291,1.895902036903149,0.7243256713328841
0.0148072242736816,2.0008114942842083,0.7368376008644734
0.0153908729553222,2.103751606062741,0.7491146582118259
0.0159847736358642,2.2045594423718007,0.761137411694856
0.0165841579437255,2.3029841587477065,0.7728759445803033
0.0171644687652587,2.3988296253711816,0.7843068656264329
0.0177614688873291,2.491950514204592,0.7954128424190737
0.0183522701263427,2.5822341017133477,0.8061804310899933
0.0189323425292968,2.669597921484587,0.8165997963586344
0.0195140838623046,2.7538931477408535,0.8266531886561167
0.0201106071472167,2.83491080403872,0.8363156845999421
0.0207021236419677,2.9126326615338027,0.8455851101438231
0.0212786197662353,2.9872150798368393,0.8544801133723078
0.0218548774719238,3.0586630677376214,0.8630012916540841
0.0224561691284179,3.1268431406323995,0.8711327250711831
0.0230379104614257,3.1917247543182854,0.8788707707974607
0.0236079692840576,3.253371662762264,0.8862230323909006
0.0241799354553222,3.3118401276773533,0.8931962198527382
0.0247488021850585,3.3672078385508435,0.8997995987479148
0.0253443717956542,3.419586102567652,0.9060464440250271
0.0259225368499755,3.4690965810973733,0.9119512655149433
0.0265290737152099,3.5158699484899905,0.9175296479733128
0.027116060256958,3.559983974518464,0.922790866540273
0.0276901721954345,3.6014677310647776,0.9277383884469756
0.0282628536224365,3.640315793677824,0.9323715667512699
0.0288288593292236,3.6764911969196605,0.9366859928043436
0.029426097869873,3.71011578389906,0.9406961981120205
0.0299978256225585,3.7414562344215714,0.9444339879949822
0.0305778980255126,3.770702634038916,0.947922032830976
0.0311470031738281,3.7979742712180613,0.9511745594488302
0.0317127704620361,3.823285481029812,0.9541932775075233
0.0322809219360351,3.846554519965656,0.9569684379430174
0.0328562259674072,3.8678144735665545,0.959503986671795
0.0334498882293701,3.8872033620046813,0.9618163845422039
0.0340256690979003,3.9048972265070896,0.9639266269485819
0.0346055030822753,3.921106228607461,0.9658597786121215
0.0351707935333251,3.9360048568358446,0.967636649746187
0.0357377529144287,3.9497343014679576,0.9692740792785969
0.0363390445709228,3.96236266031333,0.9707801888317041
0.0369155406951904,3.973890899507691,0.9721550936307941
0.0374958515167236,3.984264709579286,0.9733923165068827
0.0382566452026367,3.9933794135776455,0.9744793732601604
0.0388431549072265,4.0010805098548365,0.9753978373942965
0.0394093990325927,4.007168495529399,0.9761239153824114
0.0399727821350097,4.011860914657081,0.976683552415372
0.0405449867248535,4.015756054310222,0.9771481026482339
0.0411076545715332,4.01910481983666,0.9775474900755508
0.0416710376739501,4.0218393395307785,0.9778736200410434
0.0422334671020507,4.023816600061597,0.9781094361918918
0.0428016185760498,4.024825380342762,0.9782297474403329
0.0433645248413085,4.024810175946081,0.9782279341020068
0.0439274311065673,4.023987632467348,0.9781298342137842
0.0444896221160888,4.022688489834566,0.9779748931676799
0.0450513362884521,4.02119137704883,0.9777963413941452
0.0456130504608154,4.019726191395207,0.9776215973805309
0.0461871623992919,4.018245981770026,0.9774450615468266
0.0467603206634521,4.016450679576772,0.9772309464890363
0.0473322868347168,4.014184111489905,0.976960626339744
0.0479106903076171,4.0114223482521565,0.9766312471981844
0.0484881401062011,4.008323555438858,0.9762616725356051
0.049058198928833,4.005211903068692,0.9758905641898542
0.0496318340301513,4.002205845167616,0.9755320494709234
0.050196886062622,3.9992351731656974,0.9751777550185705
0.0507624149322509,3.9961120766924987,0.9748052818024421
0.0513243675231933,3.992541859294938,0.9743794831222671
0.0518865585327148,3.9885009869199286,0.9738975522109421
0.0524492263793945,3.984214107443547,0.9733862814899041
0.0530116558074951,3.97980302851309,0.9728601982356969
0.0535738468170166,3.9753836848437216,0.9723331292950372
0.0541362762451171,3.9711508580005375,0.9718283051113702
0.0547101497650146,3.96724811809759,0.9713628484417353
0.0552849769592285,3.9637716374822185,0.9709482291923052
0.0558476448059082,3.9605903531230964,0.970568816251709
0.0564179420471191,3.9573657948502903,0.9701842422877687
0.0569972991943359,3.953924662801363,0.9697738388524647
0.0575628280639648,3.950245431014361,0.9693350386718276
0.0581274032592773,3.9464941125281676,0.9688876411375965
0.0586917400360107,3.9430076761321757,0.9684718345211867
0.0592520236968994,3.939892414876888,0.9681002957650852
0.059812307357788,3.9370431689665732,0.9677604830833881
0.0603740215301513,3.9342995793795645,0.9674332714054974
0.06093430519104,3.931451390739033,0.9670935848181047
0.0614960193634033,3.9284441425749845,0.9667349281435599
0.0620687007904052,3.9253661209114328,0.9663678307329693
0.0626330375671386,3.922394732878863,0.966013450883882
0.0631952285766601,3.9197882533912347,0.9657025915153479
0.0637574195861816,3.917653551323492,0.9654479982450241
0.0643198490142822,3.9158940080192854,0.9652381479381061
0.0648820400238037,3.914355247139077,0.9650546290430535
0.0654437541961669,3.9127836918699397,0.9648671989554971
0.0660140514373779,3.910835963953778,0.964634904984657
0.0665845870971679,3.9085177380787925,0.9643584239169801
0.0671563148498535,3.906154024252043,0.9640765177707524
0.0677194595336914,3.903958522808139,0.9638146733189901
0.0682799816131591,3.902042285693135,0.9635861350694626
0.0688409805297851,3.9003523867656265,0.9633845908348023
0.069408893585205,3.898686072703928,0.9631858594273778
0.069974660873413,3.8969578984894513,0.9629797503259715
0.0705382823944091,3.895190070524933,0.9627689119566938
0.0711009502410888,3.8934945726126724,0.9625666999642887
0.0716643333435058,3.8920651043267753,0.9623962157495451
0.0722260475158691,3.891002798001628,0.9622695207669095
0.0727860927581787,3.8903237113806135,0.9621885301283142
0.0733461380004882,3.8900194485065,0.9621522424976752
0.0739061832427978,3.8899657452559806,0.9621458376291065
0.07448410987854,3.88995443478578,0.9621444886963255
0.0750458240509033,3.889911483111718,0.962139366104592
0.0756087303161621,3.8898858576809627,0.9621363099112629
0.0761761665344238,3.889868732367586,0.9621342674765815
0.0767583847045898,3.889798437733691,0.9621258838519996
0.0773239135742187,3.889721974342061,0.9621167645162249
0.0778853893280029,3.889785589679691,0.962124351540707
0.0784633159637451,3.889983274069929,0.9621479281869111
0.0790469646453857,3.890169736896781,0.9621701665037234
0.0796115398406982,3.890246734683545,0.9621793495736404
0.0801734924316406,3.8901594401988984,0.9621689384775612
0.0807368755340576,3.88999144888146,0.9621489031482575
0.0812995433807373,3.889952686056926,0.962144280135794
0.0818612575531005,3.890077944160195,0.9621592189277818
0.0824346542358398,3.8902416507679933,0.962178743245148
0.0829982757568359,3.8903843433333525,0.9621957613421529
0.0835731029510498,3.890503604381054,0.9622099849008479
0.0841345787048339,3.890593645365535,0.9622207235556929
0.0846960544586181,3.890646088324423,0.962226978116744
0.0852563381195068,3.8906502178748776,0.9622274706237646
0.085817813873291,3.8905970042470845,0.9622211241495982
0.0863847732543945,3.890478994042708,0.9622070497715771
0.0869700908660888,3.890259935263667,0.9621809239286353
0.0875318050384521,3.889877364552475,0.9621352969861388
0.0880930423736572,3.889279599136478,0.9620640050459449
0.0886540412902832,3.8884250151974866,0.9619620838818247
0.0892138481140136,3.8874190974444884,0.9618421140301614
0.0897741317749023,3.886501524551162,0.9617326805465843
0.0903334617614746,3.885761778774002,0.9616444554497611
0.0909163951873779,3.8851515855604517,0.9615716813197714
0.091482400894165,3.8846494619658056,0.9615117960130584
0.092045783996582,3.8842585186015914,0.9614651705138326
0.0926134586334228,3.883975978292947,0.9614314736048996
0.0931770801544189,3.883689282890644,0.9613972811425593
0.0937395095825195,3.8831910613979774,0.9613378612164346
0.0943045616149902,3.8824599294750377,0.9612506634429785
0.0948681831359863,3.8816447472773357,0.9611534414911386
0.0954298973083496,3.880888058648708,0.9610631957207848
0.0959918498992919,3.880326089173125,0.9609961729503604
0.0965602397918701,3.87992311614083,0.9609481127438826
0.0971274375915527,3.879486232442249,0.9608960082131128
0.0976903438568115,3.8789555360410413,0.9608327151970176
0.0982613563537597,3.878393041025818,0.9607656297485934
0.0988235473632812,3.8779043201296597,0.9607073429023357
0.0993857383728027,3.877634399482596,0.9606751510656845
0.0999476909637451,3.8776428953522717,0.9606761643177338
0.100510835647583,3.8779110549457325,0.9607081461239537
0.1010725498199462,3.878325556444514,0.9607575812623383
0.1016426086425781,3.878686983348944,0.9608006865082517
0.1022050380706787,3.878905784593797,0.9608267816366165
0.1027693748474121,3.8790346498935944,0.9608421506375662
0.1033484935760498,3.8791635100669883,0.9608575190271201
0.1039080619812011,3.8793566727105704,0.9608805563913861
0.1044683456420898,3.8796547588206773,0.9609161073559714
0.1050343513488769,3.8800481870299874,0.9609630292079522
0.1056022644042968,3.880481480893587,0.9610147056003688
0.10616135597229,3.8808614034810227,0.9610600167168316
0.1067297458648681,3.8810605226648014,0.9610837644823623
0.1072969436645507,3.8809850424547583,0.9610747624048313
0.1078619956970214,3.880572296236357,0.9610255366083398
0.1084237098693847,3.879959426624911,0.9609524432802272
0.1089859008789062,3.879465867540464,0.9608935794119122
0.1095478534698486,3.8792210837333982,0.9608643854972648
0.1101100444793701,3.879180242839476,0.9608595146457752
0.1106822490692138,3.8791800058564108,0.9608594863822087
0.1112408638000488,3.878949227254185,0.9608319627853803
0.1118009090423584,3.8783745478346656,0.9607634241752323
0.112368106842041,3.8775322121363214,0.9606629637862195
0.1129286289215087,3.876537803167635,0.9605443665190866
0.1134884357452392,3.8755159728957493,0.9604224988755564
0.1140482425689697,3.874599199069565,0.9603131606919839
0.1146104335784912,3.873829662618207,0.9602213826379196
0.1151807308197021,3.873166770184296,0.9601423233840908
0.1157419681549072,3.872468928565033,0.9600590959479529
0.116304874420166,3.871502673132571,0.9599438563863131
0.1168723106384277,3.8703298487186295,0.959803980565901
0.1174399852752685,3.8692822517670598,0.9596790398831182
0.1180031299591064,3.8685692137441126,0.9595940000619319
0.1185662746429443,3.8682872280048732,0.9595603692932064
0.1191258430480957,3.8683902840950037,0.9595726601826049
0.1197030544281005,3.868702165538708,0.9596098564349091
0.1202638149261474,3.8690606211467675,0.9596526073119053
0.1208233833312988,3.8693167907807933,0.9596831591466881
0.1213834285736084,3.8694066365605035,0.9596938745206164
0.1219427585601806,3.8693640693296265,0.9596887977791443
0.1225063800811767,3.8692407164545206,0.9596740862124337
0.1230685710906982,3.8691265663126972,0.9596604722012076
0.1236307621002197,3.8691463642047412,0.9596628333785153
0.124192476272583,3.8693283675530328,0.959684539839736
0.1247541904449462,3.869612447827612,0.9597184204112839
0.1253151893615722,3.8698684790655284,0.9597489557403827
0.1258766651153564,3.869902785332044,0.9597530472455706
0.1264402866363525,3.869744150657838,0.9597341278276794
0.1270210742950439,3.8696247840481,0.9597198916792259
0.1275882720947265,3.86963981607134,0.9597216844595926
0.1281514167785644,3.869758601066889,0.9597358512423673
0.1287202835083007,3.8699990575415604,0.9597645290617137
0.1292827129364013,3.8704234687116523,0.9598151460678936
0.1298446655273437,3.87105135079035,0.9598900298440465
0.130406379699707,3.8717424143258996,0.9599724488982907
0.130983829498291,3.8722474628523322,0.9600326830442917
0.1315457820892334,3.8724243361543733,0.9600537776752848
0.1321070194244384,3.872229341877497,0.960030521862966
0.1326680183410644,3.87185353101351,0.9599857011274022
0.1332292556762695,3.8717020039444012,0.9599676293914677
0.1337983608245849,3.87185841079978,0.9599862831106043
0.1343665122985839,3.8721119827853854,0.9600165251392477
0.1349291801452636,3.87227980167532,0.9600365399041445
0.1354923248291015,3.8722051224610343,0.9600276333566325
0.1370298862457275,3.8718911227737807,0.959990184473968
0.1376168727874755,3.871555154130968,0.9599501154841111
0.1381828784942627,3.8714000615630138,0.9599316185122503
0.1387503147125244,3.8714381202051125,0.9599361575410461
0.1393156051635742,3.871571168884237,0.9599520254688673
0.1398775577545166,3.8716751037738732,0.9599644211674768
0.1404402256011963,3.8716025550497037,0.9599557687109007
0.1410019397735595,3.8713074459978243,0.9599205728024152
0.1415650844573974,3.870836549696764,0.9598644117900276
0.1421270370483398,3.870335483110618,0.959804652546457
0.1426968574523925,3.8700397468659418,0.9597693818364019
0.1432595252990722,3.8700537126477306,0.959771047452467
0.1438221931457519,3.8703613842815616,0.9598077416256853
0.1443846225738525,3.8708485225670737,0.9598658397233462
0.1449499130249023,3.8713114356638174,0.9599210486262448
0.1455121040344238,3.871687884949978,0.9599659455026393
0.1460738182067871,3.8720452861770727,0.9600085706298638
0.146636962890625,3.8724146496645693,0.9600526224250255
0.1472029685974121,3.8729329634205647,0.9601144386363775
0.1477706432342529,3.8738644006617933,0.9602255256386009
0.1483333110809326,3.8752099001355593,0.960385995390526
0.1488950252532959,3.8767295576007514,0.9605672359344323
0.1494557857513427,3.878143982573219,0.9607359260222949
0.1500167846679687,3.879138714750578,0.9608545618366116
0.1505801677703857,3.879706086583913,0.9609222289142433
0.1511397361755371,3.8801191514746685,0.9609714927168985
0.1517019271850586,3.880585040959617,0.9610270565959874
0.1522629261016845,3.881249789418046,0.9611063372068657
0.1528241634368896,3.8820796567034797,0.9612053105621297
0.1533851623535156,3.8828765503639335,0.9613003513484674
0.1539463996887207,3.883490925373137,0.961373624216453
0.1545078754425048,3.8838182196979854,0.9614126586717903
0.1550676822662353,3.883822736017547,0.9614131973064712
0.1556315422058105,3.8835962397758914,0.9613861844414207
0.1561932563781738,3.8832878851373303,0.9613494088102741
0.1567535400390625,3.883007606341685,0.9613159816186
0.1573283672332763,3.882829038454986,0.9612946848845326
0.157895803451538,3.882647248316435,0.9612730038515745
0.1584610939025879,3.8821943234911034,0.9612189861906401
0.1590223312377929,3.8814758901432245,0.9611333029010091
0.1595842838287353,3.880747820078789,0.9610464702972792
0.1601464748382568,3.880167161409907,0.9609772185774788
0.1607284545898437,3.8797999519216297,0.9609334236770443
0.1612908840179443,3.879642309474004,0.9609146225961397
0.1618525981903076,3.879626395223533,0.960912724597757
0.1624138355255127,3.879630013367611,0.9609131561123684
0.1629984378814697,3.8794816979671087,0.9608954674131236
0.1635606288909912,3.8790841466434642,0.9608480538217202
0.1641221046447754,3.8784082791574606,0.9607674471102884
0.1646833419799804,3.8775943127201313,0.9606703701549864
0.1652452945709228,3.876936828266267,0.9605919558789028
0.1658060550689697,3.87656487664136,0.9605475954119232
0.1663675308227539,3.8764190373339464,0.9605302020216336
0.1669342517852783,3.8764075539136114,0.9605288324621143
0.1674997806549072,3.8764770646449804,0.9605371225952853
0.1680707931518554,3.876609537901517,0.960552921895863
0.1686329841613769,3.8768109396967008,0.9605769418949346
0.169194221496582,3.877109169479445,0.960612509994504
0.1697564125061035,3.87745536945541,0.9606537992148588
0.1703166961669922,3.877730639668827,0.9606866290626
0.1708786487579345,3.877835568469859,0.9606991432991342
0.1714396476745605,3.8776889506459638,0.9606816570597954
0.1720001697540283,3.877351287356799,0.9606413859595068
0.1725614070892334,3.87701250136349,0.9606009809609453
0.1731231212615966,3.8768138461450166,0.9605772885298083
0.1736836433410644,3.876851512069071,0.9605817807214493
0.1742446422576904,3.877158931566223,0.9606184448238192
0.1748061180114746,3.877622840016374,0.9606737724366227
0.1753664016723632,3.8780498650246225,0.9607247011797962
0.1759266853332519,3.8783697580665444,0.9607628529279616
0.176487922668457,3.878625185342874,0.9607933162261396
0.1770534515380859,3.8788770647241098,0.9608233563878862
0.1776189804077148,3.879202782480933,0.9608622028152941
0.1781826019287109,3.8795089831934115,0.9608987215604359
0.1787455081939697,3.8795464490458342,0.9609031898907185
0.1793055534362793,3.8792416551219975,0.9608668389249247
0.1798675060272216,3.8786821002740712,0.9608001041328375
0.1804287433624267,3.8779201894417534,0.9607092355411844
0.1809899806976318,3.8769760210399284,0.9605966301688518
0.1815500259399414,3.875925900598205,0.9604713885243469
0.1821115016937255,3.8748972701604347,0.9603487098653136
0.1826739311218261,3.8739494207160883,0.960235665476845
0.183234691619873,3.8730408748763328,0.9601273085964738
0.1837959289550781,3.872095344252419,0.960014540759982
0.1843574047088623,3.871043288965757,0.9598890683579827
0.1849176883697509,3.869821606614487,0.9597433655408044
0.1854791641235351,3.8684112779080055,0.9595751639903211
0.186039924621582,3.866833688195747,0.9593870142104794
0.1866028308868408,3.8651853001149843,0.9591904207286134
0.1871678829193115,3.8636309013197874,0.9590050367920743
0.1877336502075195,3.862244640478091,0.9588397056732533
0.1882965564727783,3.8610174579647585,0.958693346884327
0.1888580322265625,3.859883235598834,0.9585580749015157
0.1894202232360839,3.8587239011375343,0.9584198079478449
0.1899824142456054,3.8574697135474625,0.9582702284233854
0.1905462741851806,3.8560954150272027,0.9581063239797812
0.1911063194274902,3.854597387459692,0.957927663105643
0.1916677951812744,3.853106279956216,0.9577498275465499
0.1922292709350586,3.8518560551744683,0.9576007206427645
0.19279146194458,3.850869022735026,0.9574830031305784
0.1933522224426269,3.8499737614843443,0.9573762306244525
0.193913459777832,3.8490322415793936,0.9572639411226535
0.1944763660430908,3.847937505914465,0.9571333784847631
0.1950368881225586,3.8466686586798127,0.9569820505913335
0.1955976486206054,3.8452836226387554,0.9568168655472294
0.1961579322814941,3.843873905099738,0.9566487368870691
0.1967203617095947,3.842561394445733,0.9564922015162615
0.1972858905792236,3.8413618229748407,0.956349135732808
0.1978521347045898,3.840193738751091,0.9562098252468008
0.1984148025512695,3.8389252729006413,0.9560585428388055
0.1989953517913818,3.83737892782989,0.9558741194222734
0.1995573043823242,3.8354887766366574,0.9556486922861108
0.2001206874847412,3.83338663899642,0.9553979827821545
0.2006826400756836,3.831289340379621,0.9551478503998586
0.2012453079223632,3.8293952412245065,0.9549219524136688
0.2018072605133056,3.8278850573749357,0.9547418417317791
0.2023780345916748,3.826750876917599,0.9546065747471568
0.2029531002044677,3.8258122378814936,0.9544946288295195
