time (s),recovered_signal (V),recovered_signal_normalized
0.0006623268127441,0.002323062123902983,0.49744892586822365
0.0013082027435302,0.011455578320719405,0.4985322858149956
0.0020716190338134,0.029092018821699168,0.5006244379481667
0.0027625560760498,0.054248115034389255,0.5036086217663647
0.0033609867095947,0.08607436772308795,0.5073840640076605
0.0039303302764892,0.1241468723035046,0.5119004782846036
0.0045170783996582,0.16828493157271832,0.5171364290904925
0.0051674842834472,0.21798542487192846,0.5230322328990795
0.005868911743164,0.27244539090741854,0.5294926370893266
0.0064432621002197,0.3313051741192851,0.5364749769213266
0.0070164203643798,0.39461977932352527,0.5439857774330044
0.0075855255126953,0.4618502639960201,0.5519611056696668
0.0081584453582763,0.5319044519450907,0.5602714004112317
0.0087244510650634,0.6044344565496805,0.5688753930277671
0.0092897415161132,0.6797880012655375,0.5778143327934483
0.0098564624786376,0.7577821682199466,0.5870665207709203
0.010448932647705,0.8377390896663127,0.5965515437695526
0.0110151767730712,0.9191996883820973,0.6062149429890917
0.01157808303833,1.0019101837949491,0.6160266132863956
0.0121412277221679,1.0856145855844879,0.6259561873832811
0.0127043724060058,1.1700737908976517,0.6359753013055064
0.0132687091827392,1.255081229732937,0.6460594503425396
0.0138380527496337,1.340263519018138,0.6561643413054595
0.0144157409667968,1.425092404919796,0.6662273092033081
0.0149939060211181,1.5095248192129058,0.6762432449961511
0.0155832767486572,1.5939707261375295,0.6862607813748834
0.0161664485931396,1.6782726487006285,0.6962612373688811
0.0167665481567382,1.7617437481480724,0.706163135586801
0.0173795223236084,1.844223445715028,0.7159474271051729
0.0179781913757324,1.9260428078572336,0.7256533852337986
0.0185692310333251,2.0070447046114714,0.7352623701690447
0.0191531181335449,2.086616620652942,0.7447017212601802
0.0197350978851318,2.1646149215470176,0.7539543996331314
0.0203027725219726,2.2413340143820686,0.7630553298191789
0.0208680629730224,2.31684635941963,0.7720131075375515
0.0214338302612304,2.391017057822363,0.7808117301889557
0.0220003128051757,2.463565106817261,0.7894178633513498
0.0225653648376464,2.534073754173228,0.7977820690970951
0.0231268405914306,2.602620239100682,0.8059135100561923
0.0236892700195312,2.66974277866283,0.8138760331243253
0.0242514610290527,2.7354451408348903,0.8216700852838307
0.0248277187347412,2.799232162191402,0.8292369269485215
0.0253899097442626,2.8608656389471077,0.8365483007975719
0.0259528160095214,2.9205674559303967,0.8436305282883648
0.0265138149261474,2.9787688307522693,0.8505347633283268
0.0270755290985107,3.0353555973464665,0.8572474627776699
0.0276362895965576,3.089704720179356,0.8636947180083662
0.0281989574432373,3.1418406658221203,0.8698794314081782
0.0287709236145019,3.192392305756292,0.8758762039041758
0.0293347835540771,3.2415660245991877,0.8817095182153828
0.0298984050750732,3.2891733320465586,0.8873570143654711
0.0304675102233886,3.3349534542112793,0.8927877576176841
0.0310299396514892,3.3785787348029412,0.8979628791987627
0.0315942764282226,3.4201067350839782,0.9028892074093487
0.0321707725524902,3.4599544957769726,0.907616214399864
0.0327324867248535,3.4981392317870825,0.9121459423171093
0.0333075523376464,3.5343048703616735,0.9164361514376583
0.0338761806488037,3.5685726734374494,0.9205012266607503
0.0344455242156982,3.6015092306087046,0.9244083806208322
0.0350162982940673,3.633387116414886,0.9281899479266998
0.035581350326538,3.663867381868765,0.9318057201901228
0.0361444950103759,3.692300375494074,0.9351786314225408
0.0367083549499511,3.7187369467363856,0.9383147137241401
0.0372726917266845,3.7438817654636716,0.941297559731846
0.0378468036651611,3.7679491378242784,0.944152591869497
0.0384142398834228,3.7906951120376244,0.9468508709507468
0.0389792919158935,3.812036820211222,0.9493825666338086
0.0395510196685791,3.832041960138216,0.9517557096821647
0.0401151180267334,3.8508345246853093,0.9539850089561749
0.0406789779663085,3.8685907761796052,0.9560913738680087
0.041243553161621,3.885157493433828,0.9580566282990907
0.04180908203125,3.9000742237818087,0.9598261502848753
0.0423839092254638,3.913486138620252,0.9614171610241229
0.0429506301879882,3.9261034439570626,0.9629139098875804
0.0435154438018798,3.9379765485431273,0.9643223766972927
0.0440785884857177,3.948539807148033,0.9655754608455518
0.0446422100067138,3.957562152172668,0.9666457515535007
0.045210838317871,3.965419364230983,0.9675778264224443
0.0457732677459716,3.9727588914951784,0.9684484900703272
0.0463566780090332,3.979656816691739,0.9692667679373174
0.0469329357147216,3.9856556633644113,0.9699783911167281
0.0474958419799804,3.9906907885965373,0.9705756912348892
0.048060655593872,3.9950644180972197,0.9710945203199897
0.0486257076263427,3.9990460514981407,0.9715668482147697
0.0491907596588134,4.0028740215029215,0.9720209475332106
0.0497536659240722,4.006315117922455,0.9724291533281482
0.050318956375122,4.008696465693054,0.9727116446742794
0.050879955291748,4.010083063990242,0.9728761322070756
0.0514423847198486,4.011228589066892,0.973012022027506
0.0520062446594238,4.012239271644574,0.9731319159318763
0.0525686740875244,4.012616691492412,0.9731766879900313
0.0531337261199951,4.012402080312992,0.9731512293813737
0.0537018775939941,4.012140355310419,0.9731201818169626
0.0542747974395751,4.012087783004147,0.9731139453395563
0.0548381805419921,4.011947174074996,0.9730972653711097
0.0554020404815673,4.011157888926708,0.9730036351056047
0.0559706687927246,4.009715544907886,0.9728325346437187
0.0565345287322998,4.008135050401888,0.9726450458501605
0.057098388671875,4.006642793730303,0.9724680244166959
0.0576632022857666,4.005195304212312,0.9722963135613995
0.0582275390625,4.003592759122281,0.9721062089805784
0.058791160583496,4.001489833759499,0.9718567459563703
0.059354543685913,3.998944821279728,0.9715548396114815
0.05991792678833,3.9963926698100734,0.9712520863920256
0.0604805946350097,3.9938051749794696,0.9709451405075024
0.0610558986663818,3.990721831433849,0.9705793737431765
0.0616414546966552,3.9872322426152382,0.9701654154566195
0.0622062683105468,3.9839393486255843,0.9697747904218016
0.0627698898315429,3.9808251703399558,0.9694053658350779
0.0633344650268554,3.9772921247295563,0.9689862524142049
0.0638971328735351,3.9730797216685616,0.9684865490840829
0.0644614696502685,3.9684699918480804,0.9679397122052511
0.0650327205657959,3.963954366903437,0.9674040386740751
0.0656104087829589,3.9596828363129477,0.9668973212422722
0.0661735534667968,3.9554863010298473,0.9663995002537357
0.066744327545166,3.9512188790389233,0.9658932702114005
0.0673072338104248,3.946756695633155,0.9653639362717962
0.06787109375,3.942249740263265,0.9648292911833671
0.0684418678283691,3.9381033190638535,0.964337415061488
0.0690112113952636,3.934182038918005,0.9638722466721272
0.0695757865905761,3.9298460588186837,0.9633578838099794
0.0701370239257812,3.925156512695909,0.96280157858933
0.0707025527954101,3.9208287738915204,0.9622881933645221
0.071265697479248,3.9169630939015816,0.9618296206362746
0.0718288421630859,3.9130852619830345,0.9613696063652534
0.0723919868469238,3.909156646719809,0.9609035678353749
0.0729556083679199,3.9055453302003302,0.960475169397529
0.0735266208648681,3.9024163399757152,0.9601039877198693
0.0740907192230224,3.899573410506897,0.9597667404758853
0.0746538639068603,3.8966613096616065,0.9594212876621416
0.0752253532409668,3.893552806687919,0.9590525363187509
0.0757951736450195,3.8903338072627207,0.9586706771497348
0.0763592720031738,3.887238682124171,0.9583035127743221
0.0769217014312744,3.884639862273328,0.9579952234404076
0.0774857997894287,3.882399109167612,0.9577294103706007
0.0780467987060546,3.8799017764311987,0.9574331601146926
0.0786163806915283,3.87717063006919,0.9571091733279619
0.0791797637939453,3.8748234258534464,0.9568307323179018
0.0797429084777832,3.872930262030144,0.9566061526057347
0.0803062915802002,3.8710498233362256,0.9563830824332381
0.080869436264038,3.8691855637454187,0.9561619315337992
0.0814335346221923,3.8677561335338417,0.9559923629938092
0.0819940567016601,3.8667354682037245,0.9558712848688021
0.0825674533843994,3.865682409499174,0.9557463640257922
0.0831320285797119,3.864393358441021,0.9555934481967204
0.0836951732635498,3.862897096845194,0.9554159516724463
0.0842580795288086,3.86123111431724,0.955218321719878
0.0848212242126464,3.8596186623443014,0.9550270419185692
0.0853853225708007,3.8584558956998407,0.9548891067884359
0.0859482288360595,3.8576194689495624,0.9547898842718665
0.0865116119384765,3.856501351105498,0.9546572456800563
0.0870740413665771,3.855122823660959,0.9544937155655998
0.0876381397247314,3.854092599793523,0.9543715035431808
0.0882000923156738,3.8534596265638688,0.9542964160394076
0.088763952255249,3.8527501821883643,0.9542122570185727
0.0893278121948242,3.851970972144221,0.9541198219290798
0.0899038314819336,3.8515771785130517,0.9540731075036017
0.090472936630249,3.8515949609010627,0.9540752169690014
0.0910372734069824,3.851649914927844,0.9540817359819705
0.0916063785552978,3.851496697654202,0.9540635603276558
0.0921697616577148,3.851011009518606,0.9540059447635127
0.0927326679229736,3.8501468175437314,0.9539034285509241
0.0932960510253906,3.8491480647462315,0.9537849498366006
0.0938594341278076,3.8484595930131564,0.9537032787304098
0.0944218635559082,3.8480620655441906,0.9536561213722035
0.0949862003326416,3.8475028663036817,0.9535897854307852
0.0955486297607421,3.8468199603693374,0.9535087745767404
0.09611177444458,3.846509196842417,0.9534719097356905
0.0966737270355224,3.846522753127585,0.9534735178726005
0.0972459316253662,3.846305383640438,0.9534477320550941
0.097806692123413,3.84583020318513,0.9533913629820286
0.0983691215515136,3.8455636268599718,0.9533597399213946
0.0989322662353515,3.8456356016604483,0.9533682780519965
0.0994963645935058,3.845861675301595,0.9533950964142704
0.1000597476959228,3.8460397201395233,0.9534162172797565
0.1006309986114502,3.8459515702902745,0.9534057603570495
0.1011962890625,3.8457266695839145,0.9533790811361184
0.1017599105834961,3.845818669000399,0.9533899947201513
0.1023283004760742,3.8464283162035344,0.9534623151351722
0.1028926372528076,3.8472351148486146,0.9535580229684082
0.1034555435180664,3.8476547292165817,0.9536078004218009
0.10402512550354,3.847724013593282,0.9536160193964007
0.1045949459075927,3.8480596357867793,0.9536558331381831
0.1051588058471679,3.848737450088956,0.9537362399888805
0.1057205200195312,3.8493282731899146,0.9538063273634232
0.10628342628479,3.849674896284842,0.9538474461054629
0.1068463325500488,3.8498743656561416,0.9538711084919089
0.1074099540710449,3.8500448390335675,0.9538913311802804
0.1079723834991455,3.850323912076371,0.953924436684862
0.1085362434387207,3.850622621714575,0.953959871613284
0.1090993881225586,3.8506407095565662,0.9539620173136708
0.1096692085266113,3.8504440938346134,0.9539386934461321
0.1102316379547119,3.8504403779059655,0.9539382526379063
0.1107954978942871,3.8508131886040964,0.9539824779279992
0.1113641262054443,3.8513309855563786,0.9540439024540088
0.1119275093078613,3.8515716288540385,0.9540724491660567
0.112490177154541,3.8515992968660893,0.9540757313300756
0.1130537986755371,3.8519320125721204,0.9541152002849405
0.1136314868927002,3.8526264138001673,0.9541975747873496
0.1141951084136962,3.853308293259641,0.954278463874103
0.1147663593292236,3.853766548676804,0.9543328251863248
0.1153295040130615,3.853942823465573,0.9543537360767804
0.1158945560455322,3.853971508072327,0.9543571388360395
0.1164572238922119,3.854166620249815,0.9543802843431114
0.117020845413208,3.854489853809349,0.9544186284625529
0.1175851821899414,3.854574086155501,0.9544286206649292
0.1181490421295166,3.854475243192865,0.9544168952538341
0.1187391281127929,3.8546440502455277,0.9544369202716547
0.1193048954010009,3.8550182396507555,0.9544813091131737
0.119868516921997,3.855056793198544,0.9544858825920024
0.1204323768615722,3.8547999410512563,0.9544554130781668
0.1209950447082519,3.8548304325719416,0.9544590301856007
0.1215593814849853,3.855410360317622,0.9545278250804745
0.1221222877502441,3.8563569567294427,0.9546401166566648
0.122685432434082,3.8573538459347723,0.9547583742992627
0.1232485771179199,3.8581540166694666,0.9548532958855883
0.1238112449645996,3.8585757762420654,0.9549033278174541
0.1243743896484375,3.8587069128321336,0.954918884113898
0.1249377727508544,3.8588865816161877,0.9549401976226982
0.1255021095275879,3.8590864208615234,0.954963903886068
0.126072883605957,3.858935046640146,0.9549459468668983
0.1266601085662841,3.858537471608286,0.9548987838664643
0.1272230148315429,3.858443197489005,0.9548876004420229
0.1277923583984375,3.8586325644403163,0.9549100644120693
0.1283555030822754,3.8585546297469873,0.9549008192792497
0.1289191246032714,3.858185036137548,0.9548569756216617
0.1294820308685302,3.8579910638949633,0.9548339653412666
0.1300451755523681,3.858088751084693,0.9548455536468754
0.1306087970733642,3.858265976257608,0.9548665772782338
0.1311709880828857,3.8584207917234172,0.9548849425207566
0.13173508644104,3.858501167582832,0.9548944772409697
0.1322977542877197,3.858405537192208,0.9548831329265809
0.1328675746917724,3.858226138809819,0.9548618514946285
0.1334400177001953,3.8582359219362905,0.954863012034303
0.1340022087097168,3.858350186607925,0.9548765668713175
0.1345679759979248,3.8581505510184897,0.9548528847669682
0.1360895633697509,3.8574953393900255,0.9547751591960918
0.1366758346557617,3.856501512519468,0.9546572648280572
0.1372461318969726,3.85523644119027,0.9545071936342783
0.1378078460693359,3.853850746674208,0.9543428133140235
0.1383726596832275,3.852615012019876,0.9541962222321695
0.1389377117156982,3.851593053469926,0.9540749906968055
0.1395010948181152,3.850655518896806,0.9539637740963263
0.1400661468505859,3.8496708141218665,0.9538469618520801
0.1406288146972656,3.848505552856513,0.9537087307933878
0.1411957740783691,3.8473023133896307,0.9535659945072754
0.1417624950408935,3.8464609684395388,0.9534661885610604
0.1423275470733642,3.84586970461401,0.9533960489048309
0.1428911685943603,3.8449392912703924,0.9532856770720638
0.1434557437896728,3.843716766794323,0.9531406530696116
0.144021987915039,3.8428430364856485,0.9530370053562873
0.1445865631103515,3.842454623038439,0.9529909291640938
0.1451497077941894,3.842216882066845,0.9529627267453101
0.1457126140594482,3.8420633172608616,0.9529445098643924
0.146275520324707,3.8421779078967746,0.9529581033694624
0.1468400955200195,3.842637178695214,0.9530125851329795
0.1474015712738037,3.84329490121099,0.9530906085620461
0.1479640007019043,3.843891846995334,0.9531614222501049
0.148526906967163,3.8442569741163997,0.9532047360630692
0.1490919589996338,3.844301956266384,0.9532100721455422
0.1496548652648925,3.844227262252637,0.9532012114437363
0.1502172946929931,3.8445025005948303,0.9532338620505705
0.1507809162139892,3.845037824260433,0.9532973657121435
0.1513433456420898,3.845221324662511,0.9533191337530146
0.1519074440002441,3.845051672791389,0.9532990085171971
0.1524701118469238,3.845097535346994,0.9533044490392533
0.1530332565307617,3.8454849701057188,0.953350409132895
0.1536211967468261,3.8459265591087273,0.9534027933639748
0.1541857719421386,3.8463172928685827,0.9534491448071212
0.1547508239746093,3.846722685292396,0.9534972351586978
0.1553137302398681,3.8471826385419594,0.9535517978791164
0.1558773517608642,3.847713054275946,0.9536147193291257
0.156440258026123,3.848318325902453,0.9536865206840803
0.1570031642913818,3.848816375724142,0.9537456026738284
0.1575679779052734,3.8488617566313907,0.9537509860595462
0.1581311225891113,3.848598860937653,0.9537197996199456
0.1586949825286865,3.848629029233233,0.9537233783842629
0.159259557723999,3.8490276093769618,0.9537706606177666
0.1598436832427978,3.849378748390225,0.9538123150681416
0.1604073047637939,3.8495840396395304,0.953836668084564
0.1609723567962646,3.8498416463219534,0.9538672271063872
0.1615369319915771,3.850134567750707,0.9539019753988208
0.1620995998382568,3.8502449807653654,0.9539150733266104
0.1626627445220947,3.85009494070971,0.9538972745750721
0.1632263660430908,3.8497372615519896,0.9538548442891662
0.1637892723083496,3.849394152039955,0.9538141423517502
0.1643526554107666,3.8494454474563007,0.9538202273559618
0.1649155616760254,3.8500548229288856,0.9538925155364936
0.1654798984527588,3.850875656522938,0.9539898882889308
0.1660425662994384,3.851275752288283,0.9540373503155736
0.1666057109832763,3.8512706580542444,0.9540367460035747
0.1671760082244873,3.8514805725641716,0.95406164746199
0.1677393913269043,3.8520201359320385,0.9541256540653067
0.1683032512664795,3.852531773378966,0.9541863479097328
0.1688663959503173,3.8529592184379946,0.954237054291897
0.1694304943084716,3.853527612820522,0.9543044810223544
0.1699914932250976,3.8542062075430232,0.9543849804517127
0.1705551147460937,3.854725442997731,0.9544465756224687
0.1711175441741943,3.8548979981867593,0.9544670452692092
0.1716799736022949,3.8546137524270256,0.9544333261424648
0.1722431182861328,3.8540910146573553,0.9543713155037623
0.172806978225708,3.8538541926271996,0.9543432220959374
0.1733701229095459,3.854138501864621,0.9543769487528282
0.1739320755004882,3.8547232864663687,0.9544463198003436
0.1744954586029052,3.8552165062969634,0.9545048288243522
0.1750600337982177,3.855576957569157,0.954547587956955
0.1756234169006347,3.8560910460027324,0.9546085725537553
0.1761858463287353,3.8567136547179084,0.9546824305497332
0.176748514175415,3.857090284620993,0.954727108899376
0.1773140430450439,3.8571902628482593,0.9547389689831288
0.1778759956359863,3.8572852872815018,0.9547502414148137
0.1784381866455078,3.857526820187581,0.9547788936581423
0.179002046585083,3.857953734274387,0.9548295370528421
0.1795644760131836,3.8583197026052183,0.9548729506557162
0.1801271438598632,3.8581127198608827,0.9548483969828782
0.1806895732879638,3.8574390881441296,0.954768486298344
0.1812529563903808,3.8569820733094495,0.9547142721522858
0.1818153858184814,3.8570536742911345,0.954722765938011
0.1823790073394775,3.8574424422671654,0.9547688841867764
0.182941198348999,3.8577741122127547,0.954808229086567
0.1835043430328369,3.858014276648196,0.9548367189927867
0.184067964553833,3.858445873048385,0.9548879178347113
0.1846299171447754,3.858989161347988,0.9549523663142602
0.1851935386657714,3.859226014451893,0.9549804634082603
0.1857554912567138,3.8590269109528115,0.9549568444240155
0.1863181591033935,3.8585320468823276,0.9548981403493109
0.1868810653686523,3.8579928121675344,0.9548341727330125
0.1874444484710693,3.8577638244333166,0.9548070086815937
0.1880066394805908,3.857741734527531,0.9548043882297228
0.1885695457458496,3.857395905154545,0.9547633636442704
0.189133882522583,3.85677229989307,0.9546893874313277
0.1896965503692627,3.856455049846335,0.9546517531160594
0.1902599334716797,3.85670663648274,0.9546815979998955
0.1908228397369384,3.8573072378603066,0.9547528453387897
0.1913864612579345,3.8578694116255554,0.95481953413816
0.1919481754302978,3.8583161075758126,0.9548725241893644
0.1925113201141357,3.8588602112223525,0.9549370693908018
0.1930890083312988,3.8594903590378022,0.9550118217251083
0.1936542987823486,3.859985870891593,0.9550706026441868
0.1942169666290283,3.860167126282392,0.9550921043668552
0.194779634475708,3.859893245715205,0.955059614828343
0.1953425407409668,3.859380188520657,0.9549987525639902
0.1959056854248047,3.859176538978334,0.9549745942977933
0.1964688301086425,3.859269412941892,0.9549856116264296
0.1970319747924804,3.859121809653267,0.954968101940439
0.1976072788238525,3.858733973525159,0.9549220942336858
0.1981709003448486,3.8586076814155867,0.9549071126218107
0.1987347602844238,3.858787791547945,0.9549284784862888
0.1992998123168945,3.8588925135777257,0.9549409013115172
0.1998629570007324,3.858746113750339,0.9549235343881208
0.2004268169403076,3.858411353377567,0.9548838228812577
0.2009904384613037,3.857992986352219,0.9548341933959609
0.2015626430511474,3.8575321130633227,0.954779521534344
0.2021267414093017,3.857010317638924,0.954717622682919
